[DEFAULT]

version = pdfgetx3-1.2

# input and output specifications
dataformat = twotheta
inputfile = BaTiO3_nor.chi
backgroundfile =
outputtype = gr

# PDF calculation setup
mode = xray
wavelength = 0.142959
composition = BaTiO3
bgscale = 1
rpoly = 0.9
qmaxinst = 28.5
qmin = 0
qmax = 26
rmin = 0
rmax = 30
rstep = 0.01

# End of config --------------------------------------------------------------

#### start data
#S 1
#L r(Å)  G(Å$^{-2}$)
0 0
0.01 -0.00624285
0.02 -0.012056
0.03 -0.017053
0.04 -0.0209011
0.05 -0.0233423
0.06 -0.0242109
0.07 -0.0234434
0.08 -0.0210838
0.09 -0.0172711
0.1 -0.0122468
0.11 -0.00637843
0.12 -5.5791e-05
0.13 0.00629982
0.14 0.0122627
0.15 0.0174304
0.16 0.0214505
0.17 0.024044
0.18 0.0249959
0.19 0.0242315
0.2 0.0218216
0.21 0.0179234
0.22 0.0127965
0.23 0.00678615
0.24 0.000301733
0.25 -0.00621079
0.26 -0.0122989
0.27 -0.0175035
0.28 -0.0214602
0.29 -0.0239016
0.3 -0.0246665
0.31 -0.0237222
0.32 -0.0211733
0.33 -0.0172614
0.34 -0.0123565
0.35 -0.00693867
0.36 -0.00159626
0.37 0.00303836
0.38 0.00634503
0.39 0.00774244
0.4 0.0067317
0.41 0.00293808
0.42 -0.00385168
0.43 -0.0136589
0.44 -0.0263153
0.45 -0.0414029
0.46 -0.0581946
0.47 -0.075821
0.48 -0.0932355
0.49 -0.109255
0.5 -0.122611
0.51 -0.132007
0.52 -0.136185
0.53 -0.13385
0.54 -0.124015
0.55 -0.106049
0.56 -0.0795259
0.57 -0.0443579
0.58 -0.000822212
0.59 0.0504258
0.6 0.108356
0.61 0.171584
0.62 0.238449
0.63 0.306819
0.64 0.374508
0.65 0.439247
0.66 0.498756
0.67 0.550835
0.68 0.593453
0.69 0.624838
0.7 0.64351
0.71 0.648058
0.72 0.638323
0.73 0.614264
0.74 0.576339
0.75 0.525488
0.76 0.463104
0.77 0.390981
0.78 0.311246
0.79 0.226247
0.8 0.138617
0.81 0.0510518
0.82 -0.0339224
0.83 -0.113939
0.84 -0.186884
0.85 -0.25097
0.86 -0.304807
0.87 -0.347449
0.88 -0.37818
0.89 -0.397124
0.9 -0.404932
0.91 -0.402534
0.92 -0.391225
0.93 -0.372597
0.94 -0.348457
0.95 -0.320738
0.96 -0.291406
0.97 -0.262437
0.98 -0.23564
0.99 -0.212529
1 -0.19433
1.01 -0.181927
1.02 -0.175843
1.03 -0.176221
1.04 -0.182838
1.05 -0.195153
1.06 -0.212364
1.07 -0.23318
1.08 -0.256303
1.09 -0.280335
1.1 -0.303864
1.11 -0.325531
1.12 -0.344102
1.13 -0.358529
1.14 -0.36793
1.15 -0.371726
1.16 -0.369806
1.17 -0.362264
1.18 -0.349486
1.19 -0.332119
1.2 -0.311036
1.21 -0.287283
1.22 -0.262025
1.23 -0.236502
1.24 -0.211981
1.25 -0.189589
1.26 -0.170321
1.27 -0.154983
1.28 -0.144168
1.29 -0.13822
1.3 -0.137227
1.31 -0.141022
1.32 -0.149307
1.33 -0.161294
1.34 -0.176152
1.35 -0.192931
1.36 -0.210604
1.37 -0.228119
1.38 -0.244454
1.39 -0.258669
1.4 -0.269924
1.41 -0.277482
1.42 -0.280985
1.43 -0.280213
1.44 -0.275168
1.45 -0.266065
1.46 -0.253318
1.47 -0.237517
1.48 -0.21939
1.49 -0.199762
1.5 -0.179567
1.51 -0.159733
1.52 -0.141124
1.53 -0.124527
1.54 -0.110615
1.55 -0.0999188
1.56 -0.0928037
1.57 -0.0894582
1.58 -0.0899733
1.59 -0.094106
1.6 -0.101474
1.61 -0.111591
1.62 -0.12386
1.63 -0.137605
1.64 -0.152109
1.65 -0.166646
1.66 -0.180516
1.67 -0.193022
1.68 -0.203643
1.69 -0.211958
1.7 -0.217671
1.71 -0.220629
1.72 -0.220817
1.73 -0.218358
1.74 -0.213501
1.75 -0.206587
1.76 -0.198059
1.77 -0.188474
1.78 -0.178375
1.79 -0.168306
1.8 -0.158789
1.81 -0.150298
1.82 -0.143236
1.83 -0.137924
1.84 -0.134614
1.85 -0.133416
1.86 -0.13429
1.87 -0.137123
1.88 -0.141706
1.89 -0.147748
1.9 -0.154891
1.91 -0.162733
1.92 -0.170843
1.93 -0.178776
1.94 -0.186106
1.95 -0.192464
1.96 -0.197541
1.97 -0.201096
1.98 -0.202977
1.99 -0.203115
2 -0.201539
2.01 -0.198361
2.02 -0.193747
2.03 -0.188026
2.04 -0.181532
2.05 -0.17464
2.06 -0.167748
2.07 -0.161255
2.08 -0.155545
2.09 -0.150969
2.1 -0.14784
2.11 -0.146422
2.12 -0.146831
2.13 -0.14913
2.14 -0.153296
2.15 -0.159221
2.16 -0.166715
2.17 -0.175515
2.18 -0.185301
2.19 -0.19571
2.2 -0.206325
2.21 -0.216735
2.22 -0.226552
2.23 -0.235418
2.24 -0.243022
2.25 -0.249116
2.26 -0.253526
2.27 -0.25616
2.28 -0.256967
2.29 -0.256071
2.3 -0.253654
2.31 -0.249954
2.32 -0.245271
2.33 -0.239946
2.34 -0.234345
2.35 -0.228843
2.36 -0.223801
2.37 -0.219577
2.38 -0.216429
2.39 -0.214562
2.4 -0.2141
2.41 -0.215084
2.42 -0.217468
2.43 -0.221117
2.44 -0.225816
2.45 -0.231283
2.46 -0.237158
2.47 -0.243037
2.48 -0.248508
2.49 -0.253158
2.5 -0.25659
2.51 -0.258443
2.52 -0.258402
2.53 -0.256216
2.54 -0.251652
2.55 -0.244619
2.56 -0.23512
2.57 -0.223198
2.58 -0.208958
2.59 -0.192553
2.6 -0.174172
2.61 -0.154028
2.62 -0.132336
2.63 -0.109274
2.64 -0.0850688
2.65 -0.0598806
2.66 -0.0338295
2.67 -0.00699951
2.68 0.0205575
2.69 0.0488137
2.7 0.0777538
2.71 0.107362
2.72 0.137612
2.73 0.168401
2.74 0.199589
2.75 0.230959
2.76 0.26221
2.77 0.292947
2.78 0.322679
2.79 0.350825
2.8 0.376689
2.81 0.399495
2.82 0.41853
2.83 0.43304
2.84 0.442306
2.85 0.445681
2.86 0.442628
2.87 0.432756
2.88 0.41585
2.89 0.391755
2.9 0.360778
2.91 0.323461
2.92 0.280494
2.93 0.232779
2.94 0.181401
2.95 0.127593
2.96 0.0726915
2.97 0.0180849
2.98 -0.0347526
2.99 -0.084513
3 -0.13003
3.01 -0.170317
3.02 -0.204623
3.03 -0.232461
3.04 -0.253636
3.05 -0.268256
3.06 -0.276687
3.07 -0.279534
3.08 -0.277895
3.09 -0.272884
3.1 -0.265736
3.11 -0.257729
3.12 -0.250115
3.13 -0.24404
3.14 -0.240474
3.15 -0.240198
3.16 -0.243654
3.17 -0.250831
3.18 -0.261412
3.19 -0.274712
3.2 -0.289696
3.21 -0.305014
3.22 -0.319061
3.23 -0.330044
3.24 -0.335907
3.25 -0.334739
3.26 -0.324797
3.27 -0.304502
3.28 -0.27257
3.29 -0.228105
3.3 -0.170659
3.31 -0.100286
3.32 -0.0175708
3.33 0.0766623
3.34 0.180339
3.35 0.291292
3.36 0.406972
3.37 0.524518
3.38 0.640868
3.39 0.752871
3.4 0.857406
3.41 0.951404
3.42 1.03184
3.43 1.09671
3.44 1.14421
3.45 1.17309
3.46 1.18268
3.47 1.17294
3.48 1.14441
3.49 1.0982
3.5 1.03571
3.51 0.959145
3.52 0.87119
3.53 0.774503
3.54 0.671848
3.55 0.565979
3.56 0.459535
3.57 0.354939
3.58 0.254316
3.59 0.159596
3.6 0.0720515
3.61 -0.00750449
3.62 -0.0786465
3.63 -0.141353
3.64 -0.195961
3.65 -0.243097
3.66 -0.283605
3.67 -0.31845
3.68 -0.348532
3.69 -0.37497
3.7 -0.39856
3.71 -0.419879
3.72 -0.439235
3.73 -0.456633
3.74 -0.471756
3.75 -0.483976
3.76 -0.492336
3.77 -0.495559
3.78 -0.492401
3.79 -0.481453
3.8 -0.461317
3.81 -0.430701
3.82 -0.388512
3.83 -0.33394
3.84 -0.266539
3.85 -0.186066
3.86 -0.0930587
3.87 0.011304
3.88 0.125543
3.89 0.247718
3.9 0.375475
3.91 0.506114
3.92 0.636677
3.93 0.764044
3.94 0.884787
3.95 0.995808
3.96 1.09424
3.97 1.17748
3.98 1.2433
3.99 1.28995
4 1.31622
4.01 1.32147
4.02 1.30561
4.03 1.26865
4.04 1.2124
4.05 1.13855
4.06 1.04923
4.07 0.946913
4.08 0.834374
4.09 0.714536
4.1 0.590394
4.11 0.464925
4.12 0.34109
4.13 0.221494
4.14 0.108407
4.15 0.00373591
4.16 -0.0910123
4.17 -0.174758
4.18 -0.246854
4.19 -0.307071
4.2 -0.355362
4.21 -0.392366
4.22 -0.419086
4.23 -0.43661
4.24 -0.446192
4.25 -0.44919
4.26 -0.446999
4.27 -0.440993
4.28 -0.432465
4.29 -0.422579
4.3 -0.412398
4.31 -0.402729
4.32 -0.394166
4.33 -0.3871
4.34 -0.381724
4.35 -0.378054
4.36 -0.375947
4.37 -0.375139
4.38 -0.375278
4.39 -0.375909
4.4 -0.376601
4.41 -0.376942
4.42 -0.376566
4.43 -0.375185
4.44 -0.372598
4.45 -0.368712
4.46 -0.363526
4.47 -0.357162
4.48 -0.349874
4.49 -0.34197
4.5 -0.333817
4.51 -0.325817
4.52 -0.318384
4.53 -0.311912
4.54 -0.30675
4.55 -0.303219
4.56 -0.301496
4.57 -0.301634
4.58 -0.303584
4.59 -0.307171
4.6 -0.312097
4.61 -0.31795
4.62 -0.324214
4.63 -0.33029
4.64 -0.335475
4.65 -0.339079
4.66 -0.340419
4.67 -0.338847
4.68 -0.333782
4.69 -0.324737
4.7 -0.311351
4.71 -0.293404
4.72 -0.270811
4.73 -0.243601
4.74 -0.212199
4.75 -0.177078
4.76 -0.13886
4.77 -0.0983077
4.78 -0.0562907
4.79 -0.0137614
4.8 0.0282813
4.81 0.0687908
4.82 0.106726
4.83 0.141198
4.84 0.171392
4.85 0.196617
4.86 0.216333
4.87 0.230163
4.88 0.237907
4.89 0.239539
4.9 0.235077
4.91 0.224921
4.92 0.209581
4.93 0.189616
4.94 0.165662
4.95 0.138402
4.96 0.108532
4.97 0.0767322
4.98 0.0436338
4.99 0.0097925
5 -0.0242892
5.01 -0.0582527
5.02 -0.0918481
5.03 -0.124931
5.04 -0.157451
5.05 -0.18944
5.06 -0.22099
5.07 -0.252225
5.08 -0.283287
5.09 -0.3143
5.1 -0.345341
5.11 -0.37642
5.12 -0.40747
5.13 -0.438338
5.14 -0.46878
5.15 -0.498471
5.16 -0.526988
5.17 -0.553857
5.18 -0.578627
5.19 -0.600834
5.2 -0.620055
5.21 -0.635942
5.22 -0.648249
5.23 -0.656857
5.24 -0.661793
5.25 -0.663165
5.26 -0.661395
5.27 -0.657014
5.28 -0.650648
5.29 -0.643016
5.3 -0.634884
5.31 -0.627024
5.32 -0.620158
5.33 -0.614904
5.34 -0.611798
5.35 -0.611016
5.36 -0.612532
5.37 -0.616035
5.38 -0.620914
5.39 -0.626257
5.4 -0.630864
5.41 -0.633277
5.42 -0.631779
5.43 -0.624388
5.44 -0.609308
5.45 -0.584678
5.46 -0.548756
5.47 -0.500011
5.48 -0.437212
5.49 -0.359513
5.5 -0.266523
5.51 -0.158114
5.52 -0.0350591
5.53 0.101114
5.54 0.24855
5.55 0.404874
5.56 0.567246
5.57 0.732443
5.58 0.896949
5.59 1.05707
5.6 1.20875
5.61 1.34833
5.62 1.47242
5.63 1.57792
5.64 1.66217
5.65 1.72308
5.66 1.75914
5.67 1.76954
5.68 1.7541
5.69 1.71275
5.7 1.64759
5.71 1.56057
5.72 1.45415
5.73 1.33126
5.74 1.19518
5.75 1.04937
5.76 0.897426
5.77 0.742906
5.78 0.58938
5.79 0.440034
5.8 0.297641
5.81 0.164551
5.82 0.042637
5.83 -0.0667348
5.84 -0.162715
5.85 -0.244958
5.86 -0.313346
5.87 -0.36856
5.88 -0.411732
5.89 -0.444096
5.9 -0.467086
5.91 -0.482256
5.92 -0.491206
5.93 -0.495502
5.94 -0.496619
5.95 -0.495861
5.96 -0.494428
5.97 -0.49321
5.98 -0.49285
5.99 -0.493751
6 -0.496091
6.01 -0.499839
6.02 -0.504785
6.03 -0.510577
6.04 -0.516746
6.05 -0.522737
6.06 -0.527998
6.07 -0.53199
6.08 -0.534215
6.09 -0.534241
6.1 -0.531723
6.11 -0.526414
6.12 -0.518136
6.13 -0.50683
6.14 -0.492632
6.15 -0.475709
6.16 -0.456312
6.17 -0.434759
6.18 -0.411428
6.19 -0.386738
6.2 -0.361139
6.21 -0.335103
6.22 -0.309131
6.23 -0.283701
6.24 -0.259271
6.25 -0.236274
6.26 -0.215107
6.27 -0.196122
6.28 -0.179612
6.29 -0.165797
6.3 -0.154896
6.31 -0.146861
6.32 -0.141589
6.33 -0.138856
6.34 -0.138296
6.35 -0.1394
6.36 -0.141507
6.37 -0.143816
6.38 -0.145378
6.39 -0.145057
6.4 -0.141723
6.41 -0.13418
6.42 -0.121227
6.43 -0.101705
6.44 -0.0745484
6.45 -0.0388435
6.46 0.00612121
6.47 0.0609367
6.48 0.125796
6.49 0.200293
6.5 0.283838
6.51 0.375461
6.52 0.473823
6.53 0.577232
6.54 0.683682
6.55 0.790907
6.56 0.896349
6.57 0.997338
6.58 1.0913
6.59 1.17575
6.6 1.24836
6.61 1.30711
6.62 1.35032
6.63 1.37678
6.64 1.38578
6.65 1.3766
6.66 1.35022
6.67 1.3077
6.68 1.25057
6.69 1.1809
6.7 1.10111
6.71 1.01399
6.72 0.922516
6.73 0.829782
6.74 0.739013
6.75 0.65314
6.76 0.574786
6.77 0.506203
6.78 0.449178
6.79 0.40497
6.8 0.374267
6.81 0.35716
6.82 0.353338
6.83 0.361681
6.84 0.380357
6.85 0.407338
6.86 0.440275
6.87 0.476602
6.88 0.51365
6.89 0.548765
6.9 0.579419
6.91 0.603103
6.92 0.617891
6.93 0.622319
6.94 0.615329
6.95 0.596354
6.96 0.565325
6.97 0.52266
6.98 0.469223
6.99 0.406277
7 0.335217
7.01 0.258202
7.02 0.177221
7.03 0.0943122
7.04 0.0114729
7.05 -0.0694236
7.06 -0.1467
7.07 -0.218933
7.08 -0.28494
7.09 -0.343795
7.1 -0.395217
7.11 -0.439098
7.12 -0.475626
7.13 -0.505243
7.14 -0.528594
7.15 -0.54647
7.16 -0.559745
7.17 -0.569266
7.18 -0.575934
7.19 -0.580555
7.2 -0.583737
7.21 -0.585917
7.22 -0.587343
7.23 -0.588064
7.24 -0.587946
7.25 -0.586683
7.26 -0.583776
7.27 -0.578687
7.28 -0.570828
7.29 -0.559602
7.3 -0.544458
7.31 -0.524939
7.32 -0.500722
7.33 -0.471649
7.34 -0.437742
7.35 -0.39912
7.36 -0.356393
7.37 -0.310221
7.38 -0.261439
7.39 -0.211029
7.4 -0.16009
7.41 -0.109791
7.42 -0.0613337
7.43 -0.0159447
7.44 0.0251494
7.45 0.0610001
7.46 0.0907287
7.47 0.113622
7.48 0.129151
7.49 0.136985
7.5 0.136993
7.51 0.129241
7.52 0.113854
7.53 0.0913178
7.54 0.0623204
7.55 0.0275622
7.56 -0.0121674
7.57 -0.0560185
7.58 -0.103109
7.59 -0.152549
7.6 -0.203468
7.61 -0.255023
7.62 -0.306392
7.63 -0.356858
7.64 -0.405783
7.65 -0.452603
7.66 -0.49683
7.67 -0.538049
7.68 -0.575913
7.69 -0.610127
7.7 -0.640358
7.71 -0.666544
7.72 -0.688557
7.73 -0.706314
7.74 -0.719765
7.75 -0.728894
7.76 -0.733717
7.77 -0.734283
7.78 -0.730623
7.79 -0.722818
7.8 -0.711101
7.81 -0.69565
7.82 -0.676677
7.83 -0.654425
7.84 -0.629166
7.85 -0.601201
7.86 -0.570856
7.87 -0.538449
7.88 -0.504382
7.89 -0.469067
7.9 -0.432904
7.91 -0.396303
7.92 -0.359681
7.93 -0.323461
7.94 -0.288072
7.95 -0.253942
7.96 -0.221565
7.97 -0.191346
7.98 -0.163704
7.99 -0.139058
8 -0.117814
8.01 -0.100359
8.02 -0.0870535
8.03 -0.0782214
8.04 -0.0741627
8.05 -0.0752127
8.06 -0.0813758
8.07 -0.0927
8.08 -0.109135
8.09 -0.130519
8.1 -0.156578
8.11 -0.18691
8.12 -0.220997
8.13 -0.258231
8.14 -0.297834
8.15 -0.338895
8.16 -0.380491
8.17 -0.421649
8.18 -0.461378
8.19 -0.498701
8.2 -0.532684
8.21 -0.562474
8.22 -0.587208
8.23 -0.606324
8.24 -0.619464
8.25 -0.626404
8.26 -0.627124
8.27 -0.621804
8.28 -0.610827
8.29 -0.594761
8.3 -0.574335
8.31 -0.55034
8.32 -0.523876
8.33 -0.495965
8.34 -0.467627
8.35 -0.439837
8.36 -0.413482
8.37 -0.389316
8.38 -0.367925
8.39 -0.349723
8.4 -0.334941
8.41 -0.323418
8.42 -0.314846
8.43 -0.308707
8.44 -0.304294
8.45 -0.300747
8.46 -0.297091
8.47 -0.292289
8.48 -0.28524
8.49 -0.27488
8.5 -0.260344
8.51 -0.240877
8.52 -0.21591
8.53 -0.185096
8.54 -0.148328
8.55 -0.105748
8.56 -0.0577468
8.57 -0.00485424
8.58 0.0519875
8.59 0.111731
8.6 0.173263
8.61 0.235413
8.62 0.297018
8.63 0.356975
8.64 0.414305
8.65 0.468199
8.66 0.517929
8.67 0.563295
8.68 0.604268
8.69 0.641101
8.7 0.674322
8.71 0.704709
8.72 0.733259
8.73 0.761137
8.74 0.789634
8.75 0.82016
8.76 0.853986
8.77 0.892291
8.78 0.936075
8.79 0.986097
8.8 1.04282
8.81 1.10637
8.82 1.1765
8.83 1.25267
8.84 1.33377
8.85 1.41832
8.86 1.50455
8.87 1.59048
8.88 1.67387
8.89 1.75238
8.9 1.82359
8.91 1.88514
8.92 1.93441
8.93 1.96948
8.94 1.98872
8.95 1.99072
8.96 1.97451
8.97 1.93956
8.98 1.8858
8.99 1.81365
9 1.72395
9.01 1.61759
9.02 1.49687
9.03 1.36387
9.04 1.22091
9.05 1.07054
9.06 0.915363
9.07 0.758053
9.08 0.601204
9.09 0.447338
9.1 0.298884
9.11 0.157754
9.12 0.0256147
9.13 -0.0962099
9.14 -0.206758
9.15 -0.305434
9.16 -0.392
9.17 -0.466555
9.18 -0.529307
9.19 -0.581014
9.2 -0.622746
9.21 -0.655562
9.22 -0.680627
9.23 -0.69915
9.24 -0.712344
9.25 -0.721375
9.26 -0.727324
9.27 -0.731127
9.28 -0.733681
9.29 -0.735665
9.3 -0.737592
9.31 -0.739829
9.32 -0.742613
9.33 -0.746066
9.34 -0.750218
9.35 -0.755039
9.36 -0.760467
9.37 -0.766398
9.38 -0.772756
9.39 -0.779491
9.4 -0.786596
9.41 -0.7941
9.42 -0.802078
9.43 -0.810631
9.44 -0.819889
9.45 -0.829976
9.46 -0.840957
9.47 -0.852849
9.48 -0.86558
9.49 -0.878965
9.5 -0.89268
9.51 -0.906246
9.52 -0.919019
9.53 -0.930136
9.54 -0.938579
9.55 -0.943238
9.56 -0.94287
9.57 -0.936157
9.58 -0.921752
9.59 -0.898331
9.6 -0.864648
9.61 -0.819599
9.62 -0.761913
9.63 -0.691234
9.64 -0.607312
9.65 -0.510206
9.66 -0.400363
9.67 -0.278639
9.68 -0.146305
9.69 -0.00503512
9.7 0.143137
9.71 0.29582
9.72 0.450119
9.73 0.603133
9.74 0.751836
9.75 0.893171
9.76 1.02413
9.77 1.14187
9.78 1.24378
9.79 1.3273
9.8 1.39036
9.81 1.43197
9.82 1.45127
9.83 1.44799
9.84 1.42242
9.85 1.37538
9.86 1.30825
9.87 1.22289
9.88 1.1213
9.89 1.00644
9.9 0.881407
9.91 0.749313
9.92 0.613325
9.93 0.476584
9.94 0.342114
9.95 0.212729
9.96 0.0909639
9.97 -0.0206444
9.98 -0.120538
9.99 -0.207428
10 -0.280441
10.01 -0.339147
10.02 -0.383533
10.03 -0.413974
10.04 -0.431183
10.05 -0.436091
10.06 -0.429749
10.07 -0.413862
10.08 -0.389882
10.09 -0.359273
10.1 -0.323443
10.11 -0.2837
10.12 -0.241202
10.13 -0.196931
10.14 -0.151664
10.15 -0.105994
10.16 -0.0602939
10.17 -0.0147378
10.18 0.0306559
10.19 0.07599
10.2 0.121449
10.21 0.167258
10.22 0.21364
10.23 0.260795
10.24 0.308808
10.25 0.35765
10.26 0.407157
10.27 0.45702
10.28 0.506776
10.29 0.555815
10.3 0.603392
10.31 0.648654
10.32 0.690527
10.33 0.728093
10.34 0.760363
10.35 0.786386
10.36 0.805283
10.37 0.816288
10.38 0.818778
10.39 0.812301
10.4 0.796527
10.41 0.771244
10.42 0.736855
10.43 0.693735
10.44 0.642451
10.45 0.583741
10.46 0.518491
10.47 0.447704
10.48 0.372469
10.49 0.293893
10.5 0.213192
10.51 0.131556
10.52 0.0500722
10.53 -0.0302504
10.54 -0.1085
10.55 -0.183881
10.56 -0.25572
10.57 -0.323477
10.58 -0.386623
10.59 -0.444947
10.6 -0.498328
10.61 -0.546713
10.62 -0.590137
10.63 -0.628706
10.64 -0.662581
10.65 -0.691957
10.66 -0.717052
10.67 -0.737978
10.68 -0.755092
10.69 -0.76861
10.7 -0.778724
10.71 -0.785613
10.72 -0.789432
10.73 -0.790324
10.74 -0.788418
10.75 -0.783815
10.76 -0.776615
10.77 -0.767016
10.78 -0.755177
10.79 -0.74128
10.8 -0.725537
10.81 -0.708195
10.82 -0.689538
10.83 -0.669887
10.84 -0.649596
10.85 -0.629074
10.86 -0.608749
10.87 -0.589053
10.88 -0.570428
10.89 -0.553313
10.9 -0.538136
10.91 -0.525295
10.92 -0.515154
10.93 -0.508114
10.94 -0.504373
10.95 -0.504088
10.96 -0.507351
10.97 -0.514169
10.98 -0.524455
10.99 -0.538025
11 -0.554599
11.01 -0.573806
11.02 -0.595221
11.03 -0.618206
11.04 -0.642131
11.05 -0.666308
11.06 -0.690005
11.07 -0.71246
11.08 -0.732907
11.09 -0.750589
11.1 -0.764738
11.11 -0.774614
11.12 -0.779708
11.13 -0.779533
11.14 -0.773717
11.15 -0.762022
11.16 -0.744348
11.17 -0.72075
11.18 -0.691436
11.19 -0.65668
11.2 -0.617069
11.21 -0.573348
11.22 -0.526323
11.23 -0.476908
11.24 -0.426106
11.25 -0.374982
11.26 -0.324638
11.27 -0.276183
11.28 -0.230816
11.29 -0.189537
11.3 -0.153272
11.31 -0.122852
11.32 -0.0989738
11.33 -0.082181
11.34 -0.0728494
11.35 -0.0711767
11.36 -0.0772061
11.37 -0.0909362
11.38 -0.11178
11.39 -0.139199
11.4 -0.172502
11.41 -0.210863
11.42 -0.253338
11.43 -0.298895
11.44 -0.346434
11.45 -0.394812
11.46 -0.442816
11.47 -0.489291
11.48 -0.533136
11.49 -0.573311
11.5 -0.608855
11.51 -0.638903
11.52 -0.662701
11.53 -0.679613
11.54 -0.688968
11.55 -0.69045
11.56 -0.683912
11.57 -0.669253
11.58 -0.646496
11.59 -0.61578
11.6 -0.577352
11.61 -0.531556
11.62 -0.478817
11.63 -0.419461
11.64 -0.354234
11.65 -0.283748
11.66 -0.20862
11.67 -0.129474
11.68 -0.0469293
11.69 0.0384169
11.7 0.125998
11.71 0.215297
11.72 0.305847
11.73 0.397191
11.74 0.488976
11.75 0.580906
11.76 0.672742
11.77 0.764291
11.78 0.855402
11.79 0.945948
11.8 1.0358
11.81 1.12484
11.82 1.21293
11.83 1.29989
11.84 1.38546
11.85 1.46932
11.86 1.55107
11.87 1.63018
11.88 1.70605
11.89 1.77782
11.9 1.84469
11.91 1.90575
11.92 1.96
11.93 2.00639
11.94 2.04382
11.95 2.07124
11.96 2.0876
11.97 2.09197
11.98 2.08311
11.99 2.06074
12 2.02443
12.01 1.97398
12.02 1.90947
12.03 1.83122
12.04 1.73987
12.05 1.63631
12.06 1.52169
12.07 1.39735
12.08 1.26526
12.09 1.12732
12.1 0.985551
12.11 0.842047
12.12 0.698941
12.13 0.558327
12.14 0.422201
12.15 0.292535
12.16 0.171042
12.17 0.0589701
12.18 -0.042626
12.19 -0.133011
12.2 -0.211787
12.21 -0.278893
12.22 -0.334597
12.23 -0.37947
12.24 -0.414149
12.25 -0.439929
12.26 -0.458163
12.27 -0.470238
12.28 -0.477592
12.29 -0.48166
12.3 -0.483806
12.31 -0.485276
12.32 -0.487144
12.33 -0.490334
12.34 -0.495424
12.35 -0.502742
12.36 -0.512344
12.37 -0.524022
12.38 -0.53732
12.39 -0.551562
12.4 -0.565887
12.41 -0.579276
12.42 -0.590557
12.43 -0.598621
12.44 -0.602365
12.45 -0.600759
12.46 -0.592901
12.47 -0.578057
12.48 -0.555698
12.49 -0.525529
12.5 -0.487372
12.51 -0.441488
12.52 -0.388497
12.53 -0.329146
12.54 -0.264406
12.55 -0.195439
12.56 -0.123569
12.57 -0.0502328
12.58 0.0230584
12.59 0.0946839
12.6 0.163099
12.61 0.226873
12.62 0.284676
12.63 0.335326
12.64 0.377819
12.65 0.411353
12.66 0.435343
12.67 0.449416
12.68 0.453171
12.69 0.447038
12.7 0.431366
12.71 0.406701
12.72 0.373767
12.73 0.333442
12.74 0.286726
12.75 0.234716
12.76 0.178542
12.77 0.119416
12.78 0.0586227
12.79 -0.00267403
12.8 -0.0633651
12.81 -0.122418
12.82 -0.178893
12.83 -0.231963
12.84 -0.280919
12.85 -0.325082
12.86 -0.364012
12.87 -0.39746
12.88 -0.42524
12.89 -0.447276
12.9 -0.463594
12.91 -0.47431
12.92 -0.479609
12.93 -0.479736
12.94 -0.474846
12.95 -0.465368
12.96 -0.451636
12.97 -0.43395
12.98 -0.412593
12.99 -0.387813
13 -0.359827
13.01 -0.328811
13.02 -0.294896
13.03 -0.258119
13.04 -0.218643
13.05 -0.176532
13.06 -0.131849
13.07 -0.0846734
13.08 -0.0351106
13.09 0.0166871
13.1 0.070508
13.11 0.126084
13.12 0.183036
13.13 0.24086
13.14 0.298991
13.15 0.356775
13.16 0.413471
13.17 0.468263
13.18 0.520277
13.19 0.568602
13.2 0.612198
13.21 0.650153
13.22 0.681657
13.23 0.70592
13.24 0.722257
13.25 0.730112
13.26 0.729078
13.27 0.718923
13.28 0.699595
